time step, number of clusters, number of active clusters, number of cells, number of particles, number of tokens, total internal energy, total kinetic energy
1, 1397, 10, 39485, 422, 10, 4.01433e+06, 0.0550971
65, 1272, 9, 39362, 13093, 9, 4.01433e+06, 0.0660326
133, 1272, 9, 39361, 16885, 9, 4.01433e+06, 0.0670156
199, 1274, 9, 39362, 17703, 9, 4.01433e+06, 0.0605763
267, 1275, 9, 39360, 18457, 9, 4.01433e+06, 0.0603789
334, 1276, 9, 39355, 18737, 9, 4.01433e+06, 0.0717099
400, 1276, 9, 39352, 18795, 9, 4.01433e+06, 0.0718809
463, 1275, 9, 39350, 19213, 9, 4.01433e+06, 0.0725059
528, 1276, 9, 39351, 19246, 9, 4.01433e+06, 0.0787993
593, 1279, 9, 39353, 19254, 9, 4.01433e+06, 0.0794857
657, 1279, 9, 39350, 19391, 9, 4.01433e+06, 0.0797776
720, 1289, 9, 39360, 19523, 9, 4.01433e+06, 0.0844176
785, 1300, 9, 39368, 19490, 9, 4.01433e+06, 0.0861931
851, 1312, 9, 39380, 19591, 9, 4.01433e+06, 0.0962432
908, 1329, 9, 39396, 19610, 9, 4.01433e+06, 0.10414
914, 1332, 9, 39399, 19608, 9, 4.01433e+06, 0.105609
980, 1357, 9, 39421, 19671, 9, 4.01433e+06, 0.119065
1043, 1391, 10, 39450, 19718, 10, 4.01433e+06, 0.137842
1107, 1425, 10, 39477, 19723, 10, 4.01433e+06, 0.153825
1173, 1471, 10, 39517, 19537, 10, 4.01433e+06, 0.166599
1233, 1527, 10, 39564, 19662, 10, 4.01433e+06, 0.173946
1294, 1599, 11, 39620, 19815, 11, 4.01433e+06, 0.188748
1357, 1662, 11, 39677, 19942, 11, 4.01433e+06, 0.208189
1419, 1725, 11, 39725, 19907, 11, 4.01433e+06, 0.228241
1483, 1785, 11, 39775, 20003, 11, 4.01433e+06, 0.252956
1541, 1844, 11, 39821, 19873, 11, 4.01433e+06, 0.272925
1600, 1915, 11, 39888, 19845, 11, 4.01433e+06, 0.289657
1663, 1992, 11, 39952, 19797, 11, 4.01433e+06, 0.3154
1721, 2035, 11, 39981, 19970, 11, 4.01433e+06, 0.329494
1778, 2101, 11, 40033, 20044, 11, 4.01432e+06, 0.346743
1833, 2170, 11, 40080, 20025, 11, 4.01432e+06, 0.372652
1892, 2233, 11, 40126, 20005, 11, 4.01432e+06, 0.393796
1909, 2255, 11, 40144, 19991, 11, 4.01432e+06, 0.400037
1945, 2277, 11, 40154, 20069, 11, 4.01432e+06, 0.408588
2000, 2342, 12, 40174, 20038, 12, 4.01432e+06, 0.42137
2053, 2400, 12, 40209, 20028, 12, 4.01432e+06, 0.447998
2111, 2476, 12, 40244, 19999, 12, 4.01432e+06, 0.472794
2167, 2530, 12, 40256, 19973, 12, 4.01432e+06, 0.492409
2221, 2582, 12, 40280, 20011, 12, 4.01432e+06, 0.513385
2276, 2618, 12, 40273, 19768, 12, 4.01432e+06, 0.536316
2331, 2671, 12, 40293, 19913, 12, 4.01432e+06, 0.543676
2383, 2736, 13, 40323, 19912, 13, 4.01432e+06, 0.562851
2439, 2796, 13, 40348, 19846, 13, 4.01432e+06, 0.585442
2492, 2853, 13, 40377, 19943, 13, 4.01432e+06, 0.619576
2543, 2901, 13, 40391, 20033, 13, 4.01432e+06, 0.63702
2595, 2946, 13, 40390, 19976, 13, 4.01432e+06, 0.651406
2649, 3012, 13, 40410, 19934, 13, 4.01432e+06, 0.673417
2700, 3055, 13, 40399, 19979, 13, 4.01432e+06, 0.690537
2751, 3103, 14, 40416, 19789, 14, 4.01432e+06, 0.712682
2802, 3145, 14, 40394, 19897, 14, 4.01432e+06, 0.741935
2854, 3200, 15, 40404, 20228, 15, 4.01432e+06, 0.778423
2904, 3247, 15, 40383, 20083, 15, 4.01432e+06, 0.800418
2910, 3258, 15, 40387, 19891, 15, 4.01432e+06, 0.80375
2953, 3299, 16, 40355, 19922, 16, 4.01432e+06, 0.824208
3002, 3340, 15, 40295, 20096, 15, 4.01432e+06, 0.837286
3053, 3386, 15, 40251, 19988, 15, 4.01432e+06, 0.861687
3101, 3433, 16, 40218, 19806, 16, 4.01432e+06, 0.887238
3149, 3489, 16, 40178, 19903, 16, 4.01432e+06, 0.906614
3198, 3528, 16, 40116, 20145, 16, 4.01432e+06, 0.92135
3248, 3578, 17, 40078, 19954, 17, 4.01432e+06, 0.935365
3295, 3616, 17, 40014, 19983, 17, 4.01432e+06, 0.944866
3343, 3653, 17, 39933, 19967, 17, 4.01432e+06, 0.96774
3391, 3703, 17, 39898, 19992, 17, 4.01432e+06, 0.991578
3439, 3738, 16, 39842, 20056, 16, 4.01432e+06, 1.00965
3486, 3786, 16, 39800, 20037, 16, 4.01432e+06, 1.031
3533, 3830, 16, 39755, 19928, 16, 4.01432e+06, 1.05616
3583, 3890, 16, 39715, 20099, 16, 4.01432e+06, 1.07549
3629, 3932, 16, 39687, 20013, 16, 4.01432e+06, 1.06597
3678, 3954, 17, 39645, 19922, 17, 4.01432e+06, 1.07762
3729, 3993, 17, 39626, 20009, 17, 4.01432e+06, 1.10496
3777, 4012, 17, 39594, 20025, 17, 4.01432e+06, 1.12655
3823, 4026, 17, 39574, 19874, 17, 4.01432e+06, 1.14805
3872, 4048, 17, 39547, 19926, 17, 4.01432e+06, 1.17379
3908, 4069, 17, 39542, 19866, 17, 4.01432e+06, 1.19701
3923, 4081, 17, 39545, 20004, 17, 4.01432e+06, 1.20516
3970, 4094, 17, 39535, 19939, 17, 4.01432e+06, 1.22818
4017, 4118, 17, 39537, 20090, 17, 4.01432e+06, 1.2548
4064, 4159, 17, 39554, 20173, 17, 4.01432e+06, 1.28202
4114, 4173, 17, 39551, 19976, 17, 4.01432e+06, 1.29997
4160, 4204, 17, 39571, 19954, 17, 4.01432e+06, 1.31949
4209, 4236, 17, 39586, 20194, 17, 4.01432e+06, 1.34535
4256, 4267, 17, 39602, 19944, 17, 4.01432e+06, 1.37111
4305, 4283, 17, 39613, 19969, 17, 4.01432e+06, 1.39728
4353, 4311, 17, 39625, 19798, 17, 4.01432e+06, 1.42381
4399, 4330, 17, 39629, 19936, 17, 4.01432e+06, 1.40366
4448, 4349, 17, 39641, 19971, 17, 4.01432e+06, 1.43563
4496, 4375, 17, 39653, 20049, 17, 4.01432e+06, 1.46126
4543, 4394, 17, 39661, 19916, 17, 4.01432e+06, 1.47436
4593, 4412, 17, 39667, 19996, 17, 4.01432e+06, 1.50306
4639, 4421, 17, 39663, 19999, 17, 4.01432e+06, 1.53273
4687, 4446, 17, 39688, 20013, 17, 4.01432e+06, 1.56581
4737, 4467, 18, 39705, 20153, 18, 4.01432e+06, 1.59496
4785, 4495, 18, 39725, 20027, 18, 4.01432e+06, 1.62424
4833, 4517, 18, 39741, 20120, 18, 4.01432e+06, 1.65253
4880, 4535, 18, 39749, 20075, 18, 4.01432e+06, 1.68597
4908, 4549, 18, 39760, 19980, 18, 4.01432e+06, 1.70497
4926, 4560, 18, 39768, 20003, 18, 4.01432e+06, 1.71724
4976, 4594, 19, 39798, 20093, 19, 4.01432e+06, 1.75275
5022, 4604, 19, 39799, 20150, 19, 4.01432e+06, 1.77667
5039, 4615, 19, 39809, 20129, 19, 4.01432e+06, 1.79368
5063, 4632, 19, 39824, 20078, 19, 4.01432e+06, 1.81551
5103, 4651, 19, 39838, 20200, 19, 4.01432e+06, 1.84902
5152, 4683, 19, 39864, 20075, 19, 4.01432e+06, 1.88055
5197, 4696, 19, 39869, 20130, 19, 4.01432e+06, 1.90181
5243, 4699, 19, 39867, 20163, 19, 4.01432e+06, 1.93563
5289, 4729, 19, 39894, 20268, 19, 4.01432e+06, 1.98266
5336, 4754, 19, 39910, 20122, 19, 4.01432e+06, 2.02837
5381, 4776, 20, 39928, 20224, 20, 4.01432e+06, 2.06955
5425, 4801, 20, 39947, 20263, 20, 4.01432e+06, 2.09523
5471, 4830, 19, 39968, 20117, 19, 4.01432e+06, 2.10093
5520, 4856, 19, 39989, 20024, 19, 4.01432e+06, 2.14364
5564, 4881, 19, 40011, 19954, 19, 4.01432e+06, 2.17794
5609, 4890, 18, 40014, 19966, 18, 4.01432e+06, 2.18793
5656, 4912, 18, 40035, 20046, 18, 4.01432e+06, 2.2406
5701, 4917, 18, 40034, 19899, 18, 4.01432e+06, 2.2613
5746, 4939, 19, 40054, 20040, 19, 4.01432e+06, 2.26797
5791, 4971, 19, 40081, 20214, 19, 4.01432e+06, 2.29744
5838, 4996, 19, 40099, 20063, 19, 4.01432e+06, 2.32331
5883, 5020, 19, 40122, 20053, 19, 4.01432e+06, 2.35932
5909, 5023, 19, 40128, 20303, 19, 4.01432e+06, 2.37567
5927, 5034, 19, 40139, 20148, 19, 4.01432e+06, 2.38675
5971, 5056, 19, 40160, 20087, 19, 4.01432e+06, 2.39548
6019, 5067, 19, 40171, 20082, 19, 4.01432e+06, 2.42476
6062, 5089, 19, 40189, 20087, 19, 4.01432e+06, 2.45685
6108, 5107, 19, 40202, 20114, 19, 4.01432e+06, 2.49346
6153, 5113, 19, 40203, 20116, 19, 4.01432e+06, 2.52826
6198, 5135, 19, 40216, 20185, 19, 4.01432e+06, 2.5715
6242, 5157, 19, 40235, 20106, 19, 4.01432e+06, 2.60611
6287, 5169, 19, 40239, 19992, 19, 4.01432e+06, 2.64445
6334, 5187, 19, 40253, 20103, 19, 4.01432e+06, 2.68463
6378, 5198, 19, 40261, 20051, 19, 4.01432e+06, 2.72824
6421, 5221, 20, 40282, 20094, 20, 4.01432e+06, 2.76254
6466, 5236, 20, 40291, 20042, 20, 4.01432e+06, 2.8044
6510, 5248, 20, 40301, 20076, 20, 4.01432e+06, 2.82948
6556, 5269, 20, 40320, 20180, 20, 4.01432e+06, 2.87662
6598, 5283, 20, 40327, 20255, 20, 4.01432e+06, 2.90337
6643, 5294, 21, 40334, 20118, 21, 4.01432e+06, 2.93856
6688, 5313, 21, 40350, 20269, 21, 4.01432e+06, 2.92624
6731, 5321, 21, 40358, 20082, 21, 4.01432e+06, 2.86679
6774, 5339, 21, 40375, 20181, 21, 4.01432e+06, 2.88462
6818, 5351, 22, 40384, 20106, 22, 4.01432e+06, 2.90806
6863, 5372, 22, 40401, 19914, 22, 4.01432e+06, 2.93398
6906, 5383, 22, 40411, 20199, 22, 4.01432e+06, 2.95485
6911, 5383, 22, 40411, 20124, 22, 4.01432e+06, 2.95846
6949, 5398, 22, 40425, 20151, 22, 4.01432e+06, 2.98772
6993, 5415, 22, 40442, 20169, 22, 4.01432e+06, 2.98377
7036, 5429, 22, 40455, 20347, 22, 4.01432e+06, 3.02367
7080, 5437, 22, 40460, 20207, 22, 4.01432e+06, 3.05495
7126, 5465, 23, 40482, 20179, 23, 4.01432e+06, 3.08087
7169, 5479, 24, 40491, 20299, 24, 4.01432e+06, 3.10947
7210, 5497, 24, 40506, 20289, 24, 4.01432e+06, 3.14291
7253, 5510, 24, 40516, 20257, 24, 4.01432e+06, 3.184
7298, 5528, 24, 40531, 20229, 24, 4.01432e+06, 3.2287
7341, 5541, 25, 40538, 20297, 25, 4.01432e+06, 3.25602
7383, 5554, 25, 40550, 20279, 25, 4.01432e+06, 3.29847
7426, 5567, 25, 40561, 20144, 25, 4.01432e+06, 3.34812
7471, 5577, 25, 40568, 20244, 25, 4.01432e+06, 3.38513
7514, 5582, 25, 40569, 20381, 25, 4.01432e+06, 3.40941
7556, 5592, 25, 40577, 20139, 25, 4.01432e+06, 3.44147
7600, 5613, 25, 40594, 20140, 25, 4.01432e+06, 3.47024
7645, 5627, 25, 40604, 20182, 25, 4.01432e+06, 3.50201
7688, 5637, 25, 40615, 20203, 25, 4.01432e+06, 3.52912
7731, 5647, 25, 40624, 20255, 25, 4.01432e+06, 3.55538
7774, 5660, 25, 40633, 20377, 25, 4.01432e+06, 3.58674
7818, 5670, 25, 40643, 20214, 25, 4.01432e+06, 3.56859
7861, 5682, 25, 40655, 20206, 25, 4.01432e+06, 3.59503
7903, 5691, 25, 40664, 20129, 25, 4.01432e+06, 3.60403
7909, 5695, 25, 40667, 20125, 25, 4.01432e+06, 3.61284
7946, 5695, 25, 40666, 20318, 25, 4.01432e+06, 3.62789
7986, 5708, 27, 40674, 20108, 27, 4.01432e+06, 3.6642
8029, 5723, 27, 40685, 20094, 27, 4.01432e+06, 3.6959
8073, 5732, 28, 40694, 20086, 28, 4.01432e+06, 3.62232
8115, 5746, 28, 40707, 20158, 28, 4.01432e+06, 3.66243
8157, 5765, 28, 40722, 20238, 28, 4.01432e+06, 3.67673
8199, 5772, 28, 40729, 20242, 28, 4.01432e+06, 3.69752
8242, 5773, 28, 40726, 20297, 28, 4.01432e+06, 3.71544
8285, 5791, 28, 40743, 20107, 28, 4.01432e+06, 3.74943
8326, 5803, 28, 40752, 20239, 28, 4.01432e+06, 3.78853
8369, 5824, 28, 40769, 20025, 28, 4.01432e+06, 3.83279
8413, 5851, 28, 40786, 20368, 28, 4.01432e+06, 3.87766
8453, 5857, 28, 40793, 20176, 28, 4.01432e+06, 3.91709
8492, 5863, 29, 40794, 20123, 29, 4.01432e+06, 3.93354
8533, 5878, 30, 40806, 19984, 30, 4.01432e+06, 3.98658
8575, 5888, 29, 40813, 20279, 29, 4.01432e+06, 4.03014
8616, 5897, 29, 40818, 20164, 29, 4.01432e+06, 4.07031
8657, 5914, 29, 40836, 20190, 29, 4.01432e+06, 4.11163
8699, 5938, 31, 40857, 20143, 31, 4.01432e+06, 4.1619
8741, 5945, 31, 40860, 20072, 31, 4.01432e+06, 4.19713
8781, 5957, 30, 40871, 20247, 30, 4.01432e+06, 4.23578
8822, 5973, 30, 40878, 20148, 30, 4.01432e+06, 4.27895
8863, 5986, 32, 40890, 20195, 32, 4.01432e+06, 4.15878
8904, 5998, 32, 40896, 20107, 32, 4.01432e+06, 4.1766
8908, 5999, 31, 40897, 20116, 31, 4.01432e+06, 4.18314
8944, 6004, 32, 40903, 20200, 32, 4.01432e+06, 4.20949
8984, 6023, 31, 40922, 20306, 31, 4.01432e+06, 4.22962
9025, 6033, 31, 40930, 20216, 31, 4.01432e+06, 4.24546
9065, 6027, 32, 40926, 20161, 32, 4.01432e+06, 4.25519
9106, 6032, 31, 40934, 20275, 31, 4.01432e+06, 4.27958
9148, 6043, 31, 40937, 20291, 31, 4.01432e+06, 4.29469
9187, 6049, 32, 40944, 20181, 32, 4.01432e+06, 4.23637
9227, 6056, 33, 40946, 20112, 33, 4.01432e+06, 4.25748
9267, 6069, 33, 40955, 20106, 33, 4.01432e+06, 4.27769
9311, 6078, 33, 40962, 19943, 33, 4.01432e+06, 4.28471
9350, 6081, 33, 40965, 20043, 33, 4.01432e+06, 4.3057
9390, 6097, 33, 40978, 20287, 33, 4.01432e+06, 4.3189
9431, 6101, 34, 40983, 20179, 34, 4.01432e+06, 4.33136
9474, 6113, 34, 40995, 20316, 34, 4.01432e+06, 4.37001
9514, 6110, 34, 40988, 20302, 34, 4.01432e+06, 4.39357
9554, 6119, 35, 40987, 20270, 35, 4.01432e+06, 4.42449
9593, 6120, 35, 40975, 20158, 35, 4.01432e+06, 4.4038
9635, 6129, 35, 40976, 20205, 35, 4.01432e+06, 4.42432
9674, 6141, 35, 40985, 20186, 35, 4.01432e+06, 4.43751
9714, 6154, 36, 40999, 20082, 36, 4.01432e+06, 4.43117
9756, 6158, 36, 41002, 20021, 36, 4.01432e+06, 4.45676
9796, 6167, 36, 41006, 20003, 36, 4.01432e+06, 4.49078
9836, 6167, 36, 41005, 20108, 36, 4.01432e+06, 4.5031
9875, 6183, 36, 41018, 20000, 36, 4.01432e+06, 4.51662
9909, 6192, 36, 41025, 20109, 36, 4.01432e+06, 4.54302
9918, 6193, 36, 41026, 19997, 36, 4.01432e+06, 4.55284
9958, 6204, 36, 41029, 20005, 36, 4.01432e+06, 4.58309
10001, 6212, 35, 41036, 20159, 35, 4.01432e+06, 4.61036
10039, 6224, 38, 41044, 20328, 38, 4.01432e+06, 4.63193
10047, 6222, 38, 41043, 20281, 38, 4.01432e+06, 4.63542
10082, 6223, 39, 41041, 20197, 39, 4.01432e+06, 4.63554
10125, 6235, 38, 41048, 20182, 38, 4.01432e+06, 4.67098
10164, 6253, 39, 41066, 20175, 39, 4.01432e+06, 4.69743
10202, 6259, 39, 41073, 20117, 39, 4.01432e+06, 4.71398
10243, 6258, 40, 41072, 20342, 40, 4.01432e+06, 4.73041
10285, 6268, 39, 41079, 20112, 39, 4.01432e+06, 4.75983
10324, 6282, 39, 41090, 20026, 39, 4.01432e+06, 4.78628
10362, 6288, 39, 41085, 20061, 39, 4.01432e+06, 4.80655
10403, 6298, 39, 41091, 20187, 39, 4.01432e+06, 4.84388
10445, 6307, 39, 41096, 20049, 39, 4.01432e+06, 4.88205
10484, 6310, 39, 41098, 20042, 39, 4.01432e+06, 4.91414
10524, 6318, 39, 41098, 19830, 39, 4.01432e+06, 4.94579
10563, 6333, 39, 41106, 20014, 39, 4.01432e+06, 4.98549
10603, 6336, 39, 41108, 20298, 39, 4.01432e+06, 5.02818
10643, 6345, 39, 41115, 20265, 39, 4.01432e+06, 5.06444
10684, 6350, 40, 41120, 20146, 40, 4.01432e+06, 5.10368
10722, 6359, 40, 41129, 20172, 40, 4.01432e+06, 5.1437
10762, 6370, 40, 41140, 20129, 40, 4.01432e+06, 5.18835
10800, 6385, 42, 41147, 19999, 42, 4.01432e+06, 5.23065
10842, 6390, 41, 41153, 20191, 41, 4.01432e+06, 5.27641
10882, 6387, 41, 41147, 20075, 41, 4.01432e+06, 5.26546
10908, 6386, 42, 41140, 19952, 42, 4.01432e+06, 5.27946
10920, 6387, 42, 41140, 19916, 42, 4.01432e+06, 5.28982
10960, 6389, 43, 41142, 19981, 43, 4.01432e+06, 5.31743
11002, 6397, 43, 41145, 20120, 43, 4.01432e+06, 5.34661
11040, 6406, 45, 41148, 19939, 45, 4.01432e+06, 5.37475
11078, 6418, 45, 41158, 19935, 45, 4.01432e+06, 5.40087
11118, 6417, 45, 41157, 19976, 45, 4.01432e+06, 5.42821
11158, 6421, 46, 41152, 20111, 46, 4.01432e+06, 5.43845
11196, 6435, 47, 41154, 20231, 47, 4.01432e+06, 5.46622
11234, 6442, 46, 41157, 20158, 46, 4.01432e+06, 5.49427
11274, 6452, 46, 41157, 20075, 46, 4.01432e+06, 5.52618
11315, 6466, 47, 41159, 20249, 47, 4.01432e+06, 5.56029
11352, 6475, 48, 41153, 19933, 48, 4.01432e+06, 5.57497
11390, 6478, 49, 41141, 20038, 49, 4.01432e+06, 5.60044
11428, 6489, 49, 41150, 20183, 49, 4.01432e+06, 5.62568
11468, 6492, 50, 41133, 20124, 50, 4.01432e+06, 5.63818
11506, 6496, 51, 41128, 19936, 51, 4.01432e+06, 5.66348
11547, 6511, 51, 41132, 20050, 51, 4.01431e+06, 5.6985
11585, 6525, 54, 41133, 20047, 54, 4.01431e+06, 5.75332
11622, 6530, 53, 41134, 19990, 53, 4.01431e+06, 5.78934
11660, 6545, 54, 41144, 20117, 54, 4.01431e+06, 5.80517
11698, 6541, 55, 41132, 20083, 55, 4.01431e+06, 5.82041
11737, 6544, 55, 41138, 20164, 55, 4.01431e+06, 5.85187
11775, 6556, 56, 41145, 20066, 56, 4.01431e+06, 5.90117
11813, 6554, 56, 41137, 20030, 56, 4.01431e+06, 5.94696
11854, 6570, 57, 41138, 20099, 57, 4.01431e+06, 5.99828
11892, 6579, 57, 41134, 20097, 57, 4.01431e+06, 6.04945
11908, 6584, 57, 41137, 20128, 57, 4.01431e+06, 6.07046
11929, 6583, 57, 41130, 20018, 57, 4.01431e+06, 6.09041
11968, 6587, 57, 41123, 19861, 57, 4.01431e+06, 6.12081
12008, 6589, 57, 41111, 20095, 57, 4.01431e+06, 6.16222
12047, 6589, 57, 41108, 20001, 57, 4.01431e+06, 6.20873
12085, 6608, 59, 41122, 20049, 59, 4.01431e+06, 6.26745
12123, 6610, 63, 41115, 19964, 63, 4.01431e+06, 6.29961
12163, 6614, 63, 41119, 19955, 63, 4.01431e+06, 6.34174
12201, 6618, 62, 41125, 20034, 62, 4.01431e+06, 6.36744
12238, 6623, 64, 41122, 19905, 64, 4.01431e+06, 6.39792
12277, 6624, 65, 41115, 20143, 65, 4.01431e+06, 6.4251
12316, 6636, 64, 41125, 19884, 64, 4.01431e+06, 6.47206
12354, 6642, 64, 41121, 20052, 64, 4.01431e+06, 6.52885
12392, 6645, 65, 41109, 20080, 65, 4.01431e+06, 6.57093
12431, 6642, 65, 41098, 20189, 65, 4.01431e+06, 6.6128
12467, 6645, 67, 41097, 20152, 67, 4.01431e+06, 6.65986
12505, 6641, 67, 41094, 20094, 67, 4.01431e+06, 6.71354
12541, 6654, 68, 41096, 20037, 68, 4.0143e+06, 6.77098
12580, 6663, 68, 41106, 20138, 68, 4.0143e+06, 6.81892
12617, 6667, 66, 41096, 19938, 66, 4.0143e+06, 6.88377
12655, 6665, 67, 41093, 20007, 67, 4.0143e+06, 6.92597
12695, 6669, 68, 41093, 20173, 68, 4.0143e+06, 6.99899
12731, 6665, 68, 41069, 20080, 68, 4.0143e+06, 7.02729
12768, 6681, 70, 41088, 20091, 70, 4.0143e+06, 7.03183
12805, 6691, 71, 41091, 19869, 71, 4.0143e+06, 7.09915
12845, 6699, 72, 41087, 19914, 72, 4.0143e+06, 7.14454
12882, 6693, 73, 41070, 19956, 73, 4.0143e+06, 7.14047
12909, 6695, 73, 41071, 19841, 73, 4.0143e+06, 7.18602
12919, 6691, 73, 41068, 19851, 73, 4.0143e+06, 7.19948
12956, 6692, 73, 41064, 19823, 73, 4.0143e+06, 7.23206
12995, 6697, 75, 41068, 20013, 75, 4.0143e+06, 7.29695
13032, 6709, 78, 41086, 20058, 83, 4.0143e+06, 7.35922
13068, 6711, 77, 41078, 20018, 82, 4.0143e+06, 7.42492
13104, 6720, 77, 41071, 20071, 82, 4.0143e+06, 7.45115
13141, 6720, 79, 41051, 20076, 84, 4.0143e+06, 7.46606
13177, 6734, 78, 41052, 20019, 83, 4.0143e+06, 7.5283
13216, 6735, 78, 41037, 19733, 83, 4.0143e+06, 7.56712
13251, 6731, 77, 41031, 20012, 82, 4.0143e+06, 7.61875
13289, 6742, 77, 41029, 19924, 82, 4.0143e+06, 7.70246
13326, 6753, 79, 41035, 19968, 84, 4.0143e+06, 7.7654
13365, 6759, 80, 41036, 20183, 85, 4.0143e+06, 7.83091
13400, 6767, 81, 41029, 20065, 86, 4.0143e+06, 7.90182
13436, 6767, 82, 41025, 20135, 87, 4.0143e+06, 7.9219
13473, 6766, 82, 41026, 19860, 87, 4.0143e+06, 7.97128
13512, 6772, 81, 41032, 20013, 86, 4.0143e+06, 8.0339
13548, 6770, 82, 41029, 19977, 87, 4.0143e+06, 8.08149
13583, 6761, 82, 41009, 20177, 87, 4.0143e+06, 8.09207
13621, 6775, 84, 41003, 20118, 89, 4.0143e+06, 8.14597
13659, 6779, 85, 41005, 20026, 91, 4.0143e+06, 8.11809
13696, 6797, 88, 41000, 19821, 95, 4.0143e+06, 8.19124
13732, 6802, 88, 41001, 20093, 95, 4.0143e+06, 8.23971
13768, 6806, 89, 40987, 20029, 96, 4.0143e+06, 8.29336
13807, 6819, 90, 40987, 19924, 97, 4.0143e+06, 8.35955
13844, 6823, 90, 40987, 20067, 97, 4.0143e+06, 8.42409
13880, 6819, 92, 40979, 19953, 99, 4.0143e+06, 8.48238
13909, 6823, 94, 40976, 19968, 101, 4.0143e+06, 8.52
13917, 6819, 94, 40970, 19847, 101, 4.0143e+06, 8.52472
13955, 6822, 94, 40950, 20029, 101, 4.0143e+06, 8.5854
13990, 6826, 94, 40940, 20001, 102, 4.0143e+06, 8.63563
14026, 6828, 96, 40922, 19885, 104, 4.0143e+06, 8.69065
14064, 6835, 97, 40922, 19780, 105, 4.0143e+06, 8.74246
14101, 6846, 97, 40935, 19843, 105, 4.0143e+06, 8.81906
14137, 6856, 98, 40931, 19833, 106, 4.0143e+06, 8.89322
14176, 6865, 99, 40927, 19921, 107, 4.0143e+06, 8.93686
14210, 6870, 100, 40925, 20093, 108, 4.0143e+06, 9.01204
14245, 6874, 102, 40908, 19846, 111, 4.0143e+06, 9.0555
14281, 6875, 103, 40892, 20025, 113, 4.0143e+06, 9.05691
14315, 6877, 106, 40889, 19927, 116, 4.0143e+06, 9.15066
14354, 6876, 107, 40883, 20002, 117, 4.0143e+06, 9.22913
14389, 6879, 106, 40877, 19871, 111, 4.0143e+06, 9.2773
14427, 6872, 106, 40863, 19894, 111, 4.0143e+06, 9.33956
14462, 6873, 106, 40845, 19886, 111, 4.0143e+06, 9.41514
14498, 6867, 106, 40827, 19861, 111, 4.0143e+06, 9.47355
14533, 6871, 108, 40830, 20018, 113, 4.0143e+06, 9.55053
14569, 6869, 109, 40814, 20043, 114, 4.0143e+06, 9.6062
14607, 6876, 113, 40819, 20073, 118, 4.0143e+06, 9.66585
14643, 6882, 112, 40822, 20123, 117, 4.0143e+06, 9.77219
14678, 6875, 112, 40809, 19986, 117, 4.0143e+06, 9.83103
14714, 6885, 111, 40808, 19967, 116, 4.0143e+06, 9.93847
14752, 6876, 113, 40793, 19907, 119, 4.0143e+06, 9.80327
14787, 6881, 118, 40804, 19974, 123, 4.0143e+06, 9.78
14822, 6878, 118, 40799, 20000, 124, 4.0143e+06, 9.73077
14858, 6860, 121, 40778, 19979, 127, 4.0143e+06, 9.73927
14895, 6859, 123, 40775, 20197, 129, 4.0143e+06, 9.82628
14908, 6860, 122, 40768, 20181, 128, 4.0143e+06, 9.85513
14931, 6865, 122, 40762, 19994, 128, 4.0143e+06, 9.86859
14967, 6863, 124, 40754, 20065, 131, 4.0143e+06, 9.90004
